,Density Trees,Fine,On fire,Burned
0,0.8979,8962,17,0
1,0.8999,8956,43,0
2,0.9019,8958,61,0
3,0.9039,8949,90,0
4,0.9059,8949,110,0
5,0.9079,8944,135,0
6,0.9099,8941,158,0
7,0.9119,8929,190,0
8,0.9139,8898,241,0
9,0.9159,8869,290,0
10,0.9179,8829,350,0
11,0.9199,8772,427,0
12,0.9219,8711,508,0
13,0.9239,8640,599,0
14,0.9259,8575,684,0
15,0.9279,8472,807,0
16,0.9299,8383,916,0
17,0.9319,8261,1058,0
18,0.9339,8166,1173,0
19,0.9359,8055,1304,0
20,0.9379,7921,1458,0
21,0.9399,7782,1617,0
22,0.9419,7651,1768,0
23,0.9439,7478,1961,0
24,0.9459,7326,2130,3
25,0.9476,7154,2318,4
26,0.9492,6971,2515,6
27,0.9506,6765,2730,11
28,0.9515,6581,2926,8
29,0.9527,6407,3114,6
30,0.9541,6211,3323,7
31,0.9554,6011,3533,10
32,0.9564,5818,3737,9
33,0.9575,5604,3962,9
34,0.9586,5395,4176,15
35,0.9591,5173,4399,19
36,0.9592,4923,4641,28
37,0.9584,4693,4870,21
38,0.9583,4490,5071,22
39,0.9581,4254,5303,24
40,0.9577,4034,5513,30
41,0.9567,3819,5707,41
42,0.9546,3564,5942,40
43,0.9526,3317,6167,42
44,0.9504,3096,6359,49
45,0.9475,2835,6579,61
46,0.9434,2630,6757,47
47,0.9407,2444,6903,60
48,0.9367,2305,6986,76
49,0.9311,2141,7086,84
50,0.9247,1982,7168,97
51,0.917,1797,7292,81
52,0.9109,1619,7403,87
53,0.9042,1466,7480,96
54,0.8966,1293,7605,68
55,0.8918,1186,7643,89
56,0.8849,1044,7710,95
57,0.8774,944,7712,118
58,0.8676,841,7717,118
59,0.8578,745,7712,121
60,0.8477,672,7663,142
61,0.8355,613,7609,133
62,0.8242,528,7576,138
63,0.8124,463,7517,144
64,0.8,406,7447,147
65,0.7873,343,7387,143
66,0.775,294,7304,152
67,0.7618,259,7208,151
68,0.7487,239,7103,145
69,0.7362,207,6980,175
70,0.7207,195,6854,158
71,0.7069,194,6735,140
72,0.6949,182,6626,141
73,0.6828,179,6504,145
74,0.6703,178,6376,149
75,0.6574,168,6233,173
76,0.6421,169,6084,168
77,0.6273,166,5956,151
78,0.6142,175,5789,178
79,0.5984,179,5649,156
80,0.5848,178,5524,146
81,0.5722,181,5398,143
82,0.5599,185,5299,115
83,0.5504,189,5198,117
84,0.5407,185,5091,131
85,0.5296,190,4971,135
86,0.5181,196,4844,141
87,0.506,196,4737,127
88,0.4953,201,4626,126
89,0.4847,218,4515,114
90,0.4753,219,4443,91
91,0.4682,222,4362,98
92,0.4604,230,4260,114
93,0.451,238,4177,95
94,0.4435,242,4095,98
95,0.4357,248,4016,93
96,0.4284,246,3953,85
97,0.4219,248,3880,91
98,0.4148,273,3780,95
99,0.4073,272,3720,81
100,0.4012,282,3659,71
101,0.3961,298,3593,70
102,0.3911,305,3538,68
103,0.3863,313,3500,50
104,0.3833,313,3460,60
105,0.3793,317,3419,57
106,0.3756,335,3370,51
107,0.3725,341,3331,53
108,0.3692,346,3280,66
109,0.3646,354,3240,52
110,0.3614,364,3197,53
111,0.3581,378,3146,57
112,0.3544,384,3096,64
113,0.35,386,3053,61
114,0.3459,383,3006,70
115,0.3409,397,2958,54
116,0.3375,400,2912,63
117,0.3332,412,2869,51
118,0.3301,424,2822,55
119,0.3266,433,2780,53
120,0.3233,440,2736,57
121,0.3196,440,2692,64
122,0.3152,449,2627,76
123,0.3096,452,2595,49
124,0.3067,463,2545,59
125,0.3028,472,2487,69
126,0.2979,478,2432,69
127,0.293,493,2352,85
128,0.2865,504,2291,70
129,0.2815,516,2224,75
130,0.276,525,2169,66
131,0.2714,538,2110,66
132,0.2668,552,2048,68
133,0.262,567,1987,66
134,0.2574,573,1923,78
135,0.2516,585,1854,77
136,0.2459,600,1786,73
137,0.2406,613,1733,60
138,0.2366,626,1678,62
139,0.2324,635,1632,57
140,0.2287,646,1562,79
141,0.2228,655,1496,77
142,0.2171,669,1433,69
143,0.2122,682,1385,55
144,0.2087,693,1324,70
145,0.2037,710,1266,61
146,0.1996,721,1204,71
147,0.1945,736,1157,52
148,0.1913,750,1099,64
149,0.1869,763,1069,37
150,0.1852,783,1009,60
151,0.1812,796,965,51
152,0.1781,819,905,57
153,0.1744,834,862,48
154,0.1716,851,826,39
155,0.1697,866,780,51
156,0.1666,879,746,41
157,0.1645,892,708,45
158,0.162,908,678,34
159,0.1606,919,650,37
160,0.1589,936,625,28
161,0.1581,952,603,26
162,0.1575,966,585,24
163,0.1571,979,573,19
164,0.1572,991,552,29
165,0.1563,1005,528,30
166,0.1553,1021,513,19
167,0.1554,1037,500,17
168,0.1557,1056,490,11
169,0.1566,1072,479,15
170,0.1571,1087,466,18
171,0.1573,1106,456,11
172,0.1582,1124,447,11
173,0.1591,1140,438,13
174,0.1598,1156,430,12
175,0.1606,1169,422,15
176,0.1611,1186,421,4
177,0.1627,1201,418,8
178,0.1639,1214,413,12
179,0.1647,1231,400,16
180,0.1651,1248,396,7
181,0.1664,1264,387,13
182,0.1671,1282,379,10
183,0.1681,1299,370,12
184,0.1689,1317,364,8
185,0.1701,1336,358,7
186,0.1714,1353,355,6
187,0.1728,1368,351,9
188,0.1739,1385,346,8
189,0.1751,1402,342,7
190,0.1764,1417,343,4
191,0.178,1433,340,7
192,0.1793,1448,340,5
193,0.1808,1466,331,11
194,0.1817,1485,324,8
195,0.1829,1503,317,9
196,0.184,1520,312,8
197,0.1852,1537,307,8
198,0.1864,1557,296,11
199,0.1873,1575,290,8
200,0.1885,1592,289,4
201,0.1901,1609,286,6
202,0.1915,1625,280,10
203,0.1925,1643,275,7
204,0.1938,1661,274,3
205,0.1955,1678,268,9
206,0.1966,1695,265,6
207,0.198,1711,260,9
208,0.1991,1729,257,5
209,0.2006,1748,252,6
210,0.202,1768,247,5
211,0.2035,1785,244,6
212,0.2049,1804,236,9
213,0.206,1822,230,8
214,0.2072,1841,224,7
215,0.2085,1859,221,5
216,0.21,1877,219,4
217,0.2116,1891,222,3
218,0.2133,1904,226,3
219,0.215,1925,221,4
220,0.2166,1943,215,8
221,0.2178,1961,209,8
222,0.219,1981,204,5
223,0.2205,1999,198,8
224,0.2217,2015,194,8
225,0.2229,2029,195,5
226,0.2244,2047,189,8
227,0.2256,2065,183,8
228,0.2268,2081,183,4
229,0.2284,2098,182,4
230,0.23,2114,183,3
231,0.2317,2135,179,3
232,0.2334,2151,179,4
233,0.235,2166,178,6
234,0.2364,2186,174,4
235,0.238,2204,174,2
236,0.2398,2220,175,3
237,0.2415,2236,177,2
238,0.2433,2256,172,5
239,0.2448,2275,170,3
240,0.2465,2294,165,6
241,0.2479,2314,159,6
242,0.2493,2332,155,6
243,0.2507,2347,158,2
244,0.2525,2363,160,2
245,0.2543,2383,157,3
246,0.256,2401,156,3
247,0.2577,2420,154,3
248,0.2594,2437,154,3
249,0.2611,2458,147,6
250,0.2625,2478,143,4
251,0.2641,2496,140,5
252,0.2656,2517,138,1
253,0.2675,2536,138,1
254,0.2694,2555,137,2
255,0.2712,2574,136,2
256,0.273,2590,135,5
257,0.2745,2608,135,2
258,0.2763,2623,135,5
259,0.2778,2642,131,5
260,0.2793,2662,129,2
261,0.2811,2681,124,6
262,0.2825,2698,125,2
263,0.2843,2720,120,3
264,0.286,2740,117,3
265,0.2877,2761,110,6
266,0.2891,2781,106,4
267,0.2907,2802,102,3
268,0.2924,2822,100,2
269,0.2942,2840,98,4
270,0.2958,2860,95,3
271,0.2975,2878,96,1
272,0.2994,2897,97,0
273,0.3014,2918,95,1
274,0.3033,2937,94,2
275,0.3051,2956,92,3
276,0.3068,2976,88,4
277,0.3084,2992,89,3
278,0.3101,3011,86,4
279,0.3117,3028,88,1
280,0.3136,3048,86,2
281,0.3154,3068,83,3
282,0.3171,3087,81,3
283,0.3188,3105,82,1
284,0.3207,3125,78,4
285,0.3223,3144,77,2
286,0.3241,3160,75,6
287,0.3255,3175,78,2
288,0.3273,3193,77,3
289,0.329,3213,77,0
290,0.331,3230,78,2
291,0.3328,3245,81,2
292,0.3346,3264,80,2
293,0.3364,3283,81,0
294,0.3384,3303,80,1
295,0.3403,3323,78,2
296,0.3421,3341,78,2
297,0.3439,3361,78,0
298,0.3459,3382,76,1
299,0.3478,3403,74,1
300,0.3497,3423,72,2
301,0.3515,3443,69,3
302,0.3532,3463,68,1
303,0.3551,3483,68,0
304,0.3571,3503,66,2
305,0.3589,3523,66,0
306,0.3609,3540,69,0
307,0.3629,3558,68,3
308,0.3646,3579,67,0
309,0.3666,3599,65,2
310,0.3684,3618,64,2
311,0.3702,3637,63,2
312,0.372,3657,61,2
313,0.3738,3676,62,0
314,0.3758,3695,63,0
315,0.3778,3710,68,0
316,0.3798,3729,66,3
317,0.3815,3751,61,3
318,0.3832,3771,57,4
319,0.3848,3791,55,2
320,0.3866,3810,52,4
321,0.3882,3831,50,1
322,0.3901,3851,49,1
323,0.392,3869,49,2
324,0.3938,3889,47,2
325,0.3956,3911,43,2
326,0.3974,3931,42,1
327,0.3993,3950,43,0
328,0.4013,3970,39,4
329,0.4029,3989,40,0
330,0.4049,4007,42,0
331,0.4069,4027,41,1
332,0.4088,4045,43,0
333,0.4108,4064,44,0
334,0.4128,4081,47,0
335,0.4148,4102,44,2
336,0.4166,4119,47,0
337,0.4186,4138,47,1
338,0.4205,4155,47,3
339,0.4222,4173,48,1
340,0.4241,4188,53,0
341,0.4261,4206,53,2
342,0.4279,4223,56,0
343,0.4299,4237,61,1
344,0.4318,4256,62,0
345,0.4338,4271,66,1
346,0.4357,4289,67,1
347,0.4376,4301,75,0
348,0.4396,4315,80,1
349,0.4415,4326,89,0
350,0.4435,4343,91,1
351,0.4454,4360,94,0
352,0.4474,4376,98,0
353,0.4494,4394,98,2
354,0.4512,4412,99,1
355,0.4531,4430,101,0
356,0.4551,4444,107,0
357,0.4571,4459,110,2
358,0.4589,4474,114,1
359,0.4608,4492,115,1
360,0.4627,4506,121,0
361,0.4647,4525,121,1
362,0.4666,4539,125,2
363,0.4684,4556,126,2
364,0.4702,4568,134,0
365,0.4722,4583,137,2
366,0.474,4597,142,1
367,0.4759,4614,144,1
368,0.4778,4629,147,2
369,0.4796,4646,149,1
370,0.4815,4664,148,3
371,0.4832,4681,148,3
372,0.4849,4699,148,2
373,0.4867,4718,145,4
374,0.4883,4738,141,4
375,0.4899,4755,142,2
376,0.4917,4769,143,5
377,0.4932,4783,148,1
378,0.4951,4801,149,1
379,0.497,4819,151,0
380,0.499,4838,145,7
381,0.5003,4855,144,4
382,0.5019,4873,142,4
383,0.5035,4892,142,1
384,0.5054,4913,139,2
385,0.5072,4929,143,0
386,0.5092,4945,144,3
387,0.5109,4960,145,4
388,0.5125,4972,151,2
389,0.5143,4992,146,5
390,0.5158,5008,139,11
391,0.5167,5020,144,3
392,0.5184,5028,154,2
393,0.5202,5037,164,1
394,0.5221,5045,173,3
395,0.5238,5051,184,3
396,0.5255,5060,192,3
397,0.5272,5067,202,3
398,0.5289,5067,219,3
399,0.5306,5071,229,6
400,0.532,5075,242,3
401,0.5337,5077,258,2
402,0.5355,5075,278,2
403,0.5373,5079,291,3
404,0.539,5082,304,4
405,0.5406,5082,322,2
406,0.5424,5094,326,4
407,0.544,5100,338,2
408,0.5458,5109,346,3
409,0.5475,5115,356,4
410,0.5491,5121,363,7
411,0.5504,5128,373,3
412,0.5521,5126,391,4
413,0.5537,5128,403,6
414,0.5551,5127,418,6
415,0.5565,5119,440,6
416,0.5579,5120,457,2
417,0.5597,5118,472,7
418,0.561,5116,489,5
419,0.5625,5110,507,8
420,0.5637,5118,517,2
421,0.5655,5111,538,6
422,0.5669,5115,548,6
423,0.5683,5121,557,5
424,0.5698,5124,566,8
425,0.571,5115,585,10
426,0.572,5105,602,13
427,0.5727,5098,614,15
428,0.5732,5087,633,12
429,0.574,5074,658,8
430,0.5752,5059,685,8
431,0.5764,5050,706,8
432,0.5776,5045,718,13
433,0.5783,5032,736,15
434,0.5788,5017,763,8
435,0.58,4996,795,9
436,0.5811,4983,816,12
437,0.5819,4973,835,11
438,0.5828,4955,859,14
439,0.5834,4926,897,11
440,0.5843,4889,938,16
441,0.5847,4875,955,17
442,0.585,4848,988,14
443,0.5856,4818,1022,16
444,0.586,4771,1078,11
445,0.5869,4731,1116,22
446,0.5867,4705,1135,27
447,0.586,4672,1162,26
448,0.5854,4639,1197,18
449,0.5856,4600,1241,15
450,0.5861,4550,1305,6
451,0.5875,4495,1354,26
452,0.5869,4438,1415,16
453,0.5873,4382,1470,21
454,0.5872,4321,1527,24
455,0.5868,4289,1558,21
456,0.5867,4232,1609,26
457,0.5861,4197,1644,20
458,0.5861,4130,1716,15
459,0.5866,4076,1768,22
460,0.5864,4019,1829,16
461,0.5868,3957,1887,24
462,0.5864,3889,1953,22
463,0.5862,3827,2014,21
464,0.5861,3756,2085,20
465,0.5861,3690,2147,24
466,0.5857,3627,2199,31
467,0.5846,3541,2276,29
468,0.5837,3463,2342,32
469,0.5825,3403,2384,38
470,0.5807,3322,2463,22
471,0.5805,3233,2550,22
472,0.5803,3152,2625,26
473,0.5797,3081,2689,27
474,0.579,3033,2721,36
475,0.5774,2990,2737,47
476,0.5747,2945,2754,48
477,0.5719,2893,2781,45
478,0.5694,2827,2826,41
479,0.5673,2780,2854,39
480,0.5654,2722,2898,34
481,0.564,2663,2940,37
482,0.5623,2613,2969,41
483,0.5602,2552,3003,47
484,0.5575,2515,3010,50
485,0.5545,2457,3032,56
486,0.5509,2409,3048,52
487,0.5477,2356,3070,51
488,0.5446,2316,3080,50
489,0.5416,2285,3078,53
490,0.5383,2242,3093,48
491,0.5355,2197,3101,57
492,0.5318,2144,3118,56
493,0.5282,2083,3137,62
494,0.524,2028,3158,54
495,0.5206,1986,3167,53
496,0.5173,1918,3191,64
497,0.5129,1873,3192,64
498,0.5085,1837,3186,62
499,0.5043,1785,3204,54
500,0.5009,1740,3208,61
501,0.4968,1694,3206,68
502,0.492,1659,3177,84
503,0.4856,1585,3209,62
504,0.4814,1529,3220,65
505,0.4769,1472,3224,73
506,0.4716,1432,3219,65
507,0.4671,1383,3235,53
508,0.4638,1350,3240,48
509,0.461,1322,3239,49
510,0.4581,1287,3244,50
511,0.4551,1263,3230,58
512,0.4513,1243,3211,59
513,0.4474,1204,3221,49
514,0.4445,1173,3221,51
515,0.4414,1136,3217,61
516,0.4373,1131,3180,62
517,0.4331,1117,3144,70
518,0.4281,1095,3123,63
519,0.4238,1088,3088,62
520,0.4196,1088,3042,66
521,0.415,1086,2994,70
522,0.41,1088,2946,66
523,0.4054,1083,2919,52
524,0.4022,1072,2898,52
525,0.399,1053,2882,55
526,0.3955,1033,2868,54
527,0.3921,1019,2840,62
528,0.3879,991,2820,68
529,0.3831,981,2780,70
530,0.3781,967,2753,61
531,0.374,956,2728,56
532,0.3704,947,2704,53
533,0.3671,947,2679,45
534,0.3646,949,2634,63
535,0.3603,950,2618,35
536,0.3588,959,2582,47
537,0.3561,962,2542,57
538,0.3524,968,2499,57
539,0.3487,977,2459,51
540,0.3456,984,2411,61
541,0.3415,995,2369,51
542,0.3384,1002,2334,48
543,0.3356,1006,2298,52
544,0.3324,1015,2261,48
545,0.3296,1031,2224,41
546,0.3275,1039,2193,43
547,0.3252,1051,2147,54
548,0.3218,1065,2100,53
549,0.3185,1077,2056,52
550,0.3153,1087,2020,46
551,0.3127,1094,1984,49
552,0.3098,1104,1948,46
553,0.3072,1113,1910,49
554,0.3043,1118,1871,54
555,0.3009,1128,1843,38
556,0.2991,1139,1815,37
557,0.2974,1150,1778,46
558,0.2948,1162,1735,51
559,0.2917,1166,1704,47
560,0.289,1171,1681,38
561,0.2872,1178,1655,39
562,0.2853,1188,1622,43
563,0.283,1203,1585,42
564,0.2808,1207,1549,52
565,0.2776,1215,1517,44
566,0.2752,1230,1479,43
567,0.2729,1240,1451,38
568,0.2711,1251,1430,30
569,0.2701,1264,1412,25
570,0.2696,1273,1401,22
571,0.2694,1284,1379,31
572,0.2683,1291,1360,32
573,0.2671,1299,1338,34
574,0.2657,1316,1304,37
575,0.264,1331,1279,30
576,0.263,1346,1261,23
577,0.2627,1358,1238,31
578,0.2616,1366,1207,43
579,0.2593,1375,1190,28
580,0.2585,1385,1169,31
581,0.2574,1393,1154,27
582,0.2567,1403,1129,35
583,0.2552,1418,1110,24
584,0.2548,1426,1092,30
585,0.2538,1441,1064,33
586,0.2525,1455,1042,28
587,0.2517,1462,1023,32
588,0.2505,1471,1010,24
589,0.2501,1483,995,23
590,0.2498,1497,975,26
591,0.2492,1509,957,26
592,0.2486,1517,935,34
593,0.2472,1534,909,29
594,0.2463,1554,885,24
595,0.2459,1569,858,32
596,0.2447,1582,844,21
597,0.2446,1594,823,29
598,0.2437,1611,805,21
599,0.2436,1629,781,26
600,0.243,1644,762,24
601,0.2426,1660,747,19
602,0.2427,1678,715,34
603,0.2413,1693,675,45
604,0.2388,1704,660,24
605,0.2384,1721,643,20
606,0.2384,1733,620,31
607,0.2373,1747,605,21
608,0.2372,1757,598,17
609,0.2375,1772,579,24
610,0.2371,1787,558,26
611,0.2365,1801,542,22
612,0.2363,1817,528,18
613,0.2365,1834,504,27
614,0.2358,1849,488,21
615,0.2357,1862,480,15
616,0.2362,1877,468,17
617,0.2365,1895,460,10
618,0.2375,1906,454,15
619,0.238,1923,444,13
620,0.2387,1937,441,9
621,0.2398,1954,426,18
622,0.24,1974,414,12
623,0.2408,1985,403,20
624,0.2408,2002,395,11
625,0.2417,2016,385,16
626,0.2421,2037,371,13
627,0.2428,2050,363,15
628,0.2433,2071,346,16
629,0.2437,2091,330,16
630,0.2441,2111,314,16
631,0.2445,2129,306,10
632,0.2455,2143,303,9
633,0.2466,2160,297,9
634,0.2477,2178,288,11
635,0.2486,2195,285,6
636,0.25,2216,278,6
637,0.2514,2231,273,10
638,0.2524,2247,271,6
639,0.2538,2268,269,1
640,0.2557,2284,262,11
641,0.2566,2302,255,9
642,0.2577,2321,251,5
643,0.2592,2338,242,12
644,0.26,2356,240,4
645,0.2616,2370,240,6
646,0.263,2386,244,0
647,0.265,2402,244,4
648,0.2666,2416,244,6
649,0.268,2434,242,4
650,0.2696,2447,239,10
651,0.2706,2466,236,4
652,0.2722,2480,237,5
653,0.2737,2498,236,3
654,0.2754,2518,231,5
655,0.2769,2536,227,6
656,0.2783,2555,224,4
657,0.2799,2576,215,8
658,0.2811,2593,209,9
659,0.2822,2610,209,3
660,0.2839,2626,207,6
661,0.2853,2643,206,4
662,0.2869,2662,205,2
663,0.2887,2678,205,4
664,0.2903,2695,206,2
665,0.2921,2713,204,4
666,0.2937,2732,197,8
667,0.2949,2752,193,4
668,0.2965,2772,190,3
669,0.2982,2792,180,10
670,0.2992,2811,177,4
671,0.3008,2827,173,8
672,0.302,2845,169,6
673,0.3034,2863,169,2
674,0.3052,2881,165,6
675,0.3066,2894,165,7
676,0.3079,2911,164,4
677,0.3095,2928,163,4
678,0.3111,2946,164,1
679,0.313,2963,164,3
680,0.3147,2977,169,1
681,0.3166,2998,162,6
682,0.318,3014,161,5
683,0.3195,3028,162,5
684,0.321,3047,161,2
685,0.3228,3065,159,4
686,0.3244,3082,159,3
687,0.3261,3097,160,4
688,0.3277,3109,161,7
689,0.329,3124,164,2
690,0.3308,3139,165,4
691,0.3324,3154,168,2
692,0.3342,3172,168,2
693,0.336,3189,169,2
694,0.3378,3207,168,3
695,0.3395,3223,165,7
696,0.3408,3238,165,5
697,0.3423,3256,163,4
698,0.3439,3273,164,2
699,0.3457,3292,160,5
700,0.3472,3311,157,4
701,0.3488,3330,156,2
702,0.3506,3349,152,5
703,0.3521,3367,148,6
704,0.3535,3385,149,1
705,0.3554,3404,148,2
706,0.3572,3425,144,3
707,0.3589,3446,139,4
708,0.3605,3465,138,2
709,0.3623,3483,137,3
710,0.364,3504,132,4
711,0.3656,3522,129,5
712,0.3671,3542,124,5
713,0.3686,3562,118,6
714,0.37,3581,118,1
715,0.3719,3600,118,1
716,0.3738,3619,115,4
717,0.3754,3639,114,1
718,0.3773,3658,114,1
719,0.3792,3677,111,4
720,0.3808,3695,108,5
721,0.3823,3711,111,1
722,0.3842,3729,109,4
723,0.3858,3746,110,2
724,0.3876,3766,104,6
725,0.389,3783,105,2
726,0.3908,3799,107,2
727,0.3926,3817,104,5
728,0.3941,3833,107,1
729,0.396,3848,109,3
730,0.3977,3865,108,4
731,0.3993,3878,113,2
732,0.4011,3897,111,3
733,0.4028,3916,110,2
734,0.4046,3932,113,1
735,0.4065,3952,111,2
736,0.4083,3966,117,0
737,0.4103,3982,117,4
738,0.4119,4000,117,2
739,0.4137,4018,116,3
740,0.4154,4038,113,3
741,0.4171,4055,113,3
742,0.4188,4071,117,0
743,0.4208,4091,115,2
744,0.4226,4106,118,2
745,0.4244,4124,119,1
746,0.4263,4144,114,5
747,0.4278,4162,114,2
748,0.4296,4183,113,0
749,0.4316,4201,112,3
750,0.4333,4221,108,4
751,0.4349,4237,109,3
752,0.4366,4255,107,4
753,0.4382,4273,104,5
754,0.4397,4291,104,2
755,0.4415,4309,103,3
756,0.4432,4330,102,0
757,0.4452,4347,105,0
758,0.4472,4368,103,1
759,0.4491,4385,103,3
760,0.4508,4405,101,2
761,0.4526,4421,101,4
762,0.4542,4440,100,2
763,0.456,4455,100,5
764,0.4575,4474,97,4
765,0.4591,4494,95,2
766,0.4609,4511,96,2
767,0.4627,4530,97,0
768,0.4647,4550,96,1
769,0.4666,4570,94,2
770,0.4684,4588,94,2
771,0.4702,4608,93,1
772,0.4721,4627,92,2
773,0.4739,4642,94,3
774,0.4756,4662,91,3
775,0.4773,4680,92,1
776,0.4792,4696,94,2
777,0.481,4711,99,0
778,0.483,4728,101,1
779,0.4849,4746,101,2
780,0.4867,4762,103,2
781,0.4885,4776,107,2
782,0.4903,4788,113,2
783,0.4921,4804,116,1
784,0.494,4824,115,1
785,0.4959,4839,118,2
786,0.4977,4857,120,0
787,0.4997,4872,124,1
788,0.5016,4889,125,2
789,0.5034,4902,132,0
790,0.5054,4918,133,3
791,0.5071,4937,131,3
792,0.5088,4950,138,0
793,0.5108,4959,147,2
794,0.5126,4974,150,2
795,0.5144,4988,155,1
796,0.5163,5004,157,2
797,0.5181,5019,158,4
798,0.5197,5028,166,3
799,0.5214,5047,165,2
800,0.5232,5055,174,3
801,0.5249,5071,177,1
802,0.5268,5083,182,3
803,0.5285,5083,201,1
804,0.5304,5090,213,1
805,0.5323,5098,225,0
806,0.5343,5103,237,3
807,0.536,5116,241,3
808,0.5377,5130,247,0
809,0.5397,5145,251,1
810,0.5416,5150,260,6
811,0.543,5159,269,2
812,0.5448,5170,274,4
813,0.5464,5180,279,5
814,0.5479,5189,288,2
815,0.5497,5201,290,6
816,0.5511,5210,293,8
817,0.5523,5224,297,2
818,0.5541,5238,297,6
819,0.5555,5247,305,3
820,0.5572,5255,314,3
821,0.5589,5265,318,6
822,0.5603,5277,322,4
823,0.5619,5288,329,2
824,0.5637,5294,340,3
825,0.5654,5292,360,2
826,0.5672,5297,371,4
827,0.5688,5290,388,10
828,0.5698,5281,413,4
829,0.5714,5283,425,6
830,0.5728,5294,424,10
831,0.5738,5302,429,7
832,0.5751,5297,450,4
833,0.5767,5285,477,5
834,0.5782,5286,491,5
835,0.5797,5280,509,8
836,0.5809,5264,539,6
837,0.5823,5251,564,8
838,0.5835,5230,597,8
839,0.5847,5203,636,8
840,0.5859,5178,679,2
841,0.5877,5164,707,6
842,0.5891,5145,736,10
843,0.5901,5134,756,11
844,0.591,5121,778,11
845,0.5919,5114,798,7
846,0.5932,5094,827,11
847,0.5941,5086,843,12
848,0.5949,5049,890,10
849,0.5959,5005,943,11
850,0.5968,4979,978,11
851,0.5977,4954,1017,6
852,0.5991,4917,1059,15
853,0.5996,4875,1108,13
854,0.6003,4840,1150,13
855,0.601,4792,1206,12
856,0.6018,4754,1249,15
857,0.6023,4721,1285,17
858,0.6026,4670,1337,19
859,0.6027,4620,1393,14
860,0.6033,4566,1450,17
861,0.6036,4516,1498,22
862,0.6034,4464,1553,17
863,0.6037,4385,1633,19
864,0.6038,4309,1704,25
865,0.6033,4238,1779,16
866,0.6037,4176,1844,17
867,0.604,4093,1927,20
868,0.604,4045,1972,23
869,0.6037,3959,2059,19
870,0.6038,3884,2135,19
871,0.6039,3809,2207,23
872,0.6036,3758,2252,26
873,0.603,3700,2284,46
874,0.6004,3636,2337,31
875,0.5993,3577,2378,38
876,0.5975,3501,2442,32
877,0.5963,3406,2516,41
878,0.5942,3293,2615,34
879,0.5928,3206,2701,21
880,0.5927,3146,2753,28
881,0.5919,3089,2799,31
882,0.5908,3039,2835,34
883,0.5894,2997,2857,40
884,0.5874,2941,2891,42
885,0.5852,2892,2923,37
886,0.5835,2822,2973,40
887,0.5815,2761,3004,50
888,0.5785,2725,3008,52
889,0.5753,2692,3011,50
890,0.5723,2638,3035,50
891,0.5693,2577,3068,48
